# 18.11.2020
# 
# unfiltered x-ray spectrum
# measured at: PTB, Braunschweig
# anode: rhodium
# tube voltage: 44 kV
# anode angle: 18°
# inherent filtration: 0.15 mm Be
# measured in air at 100 cm distance from the focus
# bin width: 0.25 keV
# 
# energy 	 fluence
# (top of bin) 	 (normalised to total fluence and bin width)
# [keV] 	 [photons keV^-1 cm^-2]
2.500e-01 	 0.00000e+00
5.000e-01 	 0.00000e+00
7.500e-01 	 0.00000e+00
1.000e+00 	 0.00000e+00
1.250e+00 	 0.00000e+00
1.500e+00 	 0.00000e+00
1.750e+00 	 0.00000e+00
2.000e+00 	 0.00000e+00
2.250e+00 	 0.00000e+00
2.500e+00 	 0.00000e+00
2.750e+00 	 0.00000e+00
3.000e+00 	 0.00000e+00
3.250e+00 	 0.00000e+00
3.500e+00 	 0.00000e+00
3.750e+00 	 0.00000e+00
4.000e+00 	 0.00000e+00
4.250e+00 	 5.71470e-02
4.500e+00 	 3.43897e-02
4.750e+00 	 8.94300e-02
5.000e+00 	 5.35265e-02
5.250e+00 	 1.06526e-01
5.500e+00 	 1.82544e-01
5.750e+00 	 2.78981e-01
6.000e+00 	 4.19043e-01
6.250e+00 	 6.15911e-01
6.500e+00 	 7.99844e-01
6.750e+00 	 1.03293e+00
7.000e+00 	 1.24455e+00
7.250e+00 	 1.50123e+00
7.500e+00 	 1.71874e+00
7.750e+00 	 2.09167e+00
8.000e+00 	 2.36561e+00
8.250e+00 	 2.62340e+00
8.500e+00 	 2.77394e+00
8.750e+00 	 3.04776e+00
9.000e+00 	 3.42984e+00
9.250e+00 	 3.69817e+00
9.500e+00 	 3.69961e+00
9.750e+00 	 3.77649e+00
1.000e+01 	 4.61498e+00
1.025e+01 	 5.32099e+00
1.050e+01 	 2.75255e+00
1.075e+01 	 3.97776e+00
1.100e+01 	 4.23162e+00
1.125e+01 	 4.83246e+00
1.150e+01 	 4.65983e+00
1.175e+01 	 4.72534e+00
1.200e+01 	 4.73066e+00
1.225e+01 	 4.62065e+00
1.250e+01 	 4.58426e+00
1.275e+01 	 4.90436e+00
1.300e+01 	 4.40891e+00
1.325e+01 	 4.37696e+00
1.350e+01 	 4.44193e+00
1.375e+01 	 4.35754e+00
1.400e+01 	 4.39287e+00
1.425e+01 	 4.28338e+00
1.450e+01 	 4.25478e+00
1.475e+01 	 4.19594e+00
1.500e+01 	 4.17549e+00
1.525e+01 	 4.08275e+00
1.550e+01 	 4.03108e+00
1.575e+01 	 3.95947e+00
1.600e+01 	 3.90157e+00
1.625e+01 	 3.85483e+00
1.650e+01 	 3.79943e+00
1.675e+01 	 3.72439e+00
1.700e+01 	 3.68383e+00
1.725e+01 	 3.61063e+00
1.750e+01 	 3.57491e+00
1.775e+01 	 3.50138e+00
1.800e+01 	 3.42863e+00
1.825e+01 	 3.44165e+00
1.850e+01 	 3.34195e+00
1.875e+01 	 3.32711e+00
1.900e+01 	 3.28551e+00
1.925e+01 	 3.25492e+00
1.950e+01 	 3.42215e+00
1.975e+01 	 3.72020e+00
2.000e+01 	 3.07776e+01
2.025e+01 	 4.46777e+01
2.050e+01 	 7.08718e+00
2.075e+01 	 2.62458e+00
2.100e+01 	 2.93317e+00
2.125e+01 	 2.67001e+00
2.150e+01 	 2.72690e+00
2.175e+01 	 2.56989e+00
2.200e+01 	 2.84974e+00
2.225e+01 	 2.08563e+00
2.250e+01 	 6.27425e+00
2.275e+01 	 1.13457e+01
2.300e+01 	 4.52284e+00
2.325e+01 	 3.45619e+00
2.350e+01 	 1.89797e+00
2.375e+01 	 1.93021e+00
2.400e+01 	 1.79775e+00
2.425e+01 	 1.88258e+00
2.450e+01 	 1.77654e+00
2.475e+01 	 1.77273e+00
2.500e+01 	 1.73393e+00
2.525e+01 	 1.72188e+00
2.550e+01 	 1.67879e+00
2.575e+01 	 1.67204e+00
2.600e+01 	 1.62652e+00
2.625e+01 	 1.63813e+00
2.650e+01 	 1.57621e+00
2.675e+01 	 1.56277e+00
2.700e+01 	 1.51602e+00
2.725e+01 	 1.53383e+00
2.750e+01 	 1.45012e+00
2.775e+01 	 1.49332e+00
2.800e+01 	 1.41398e+00
2.825e+01 	 1.39378e+00
2.850e+01 	 1.38955e+00
2.875e+01 	 1.33263e+00
2.900e+01 	 1.32435e+00
2.925e+01 	 1.31077e+00
2.950e+01 	 1.26259e+00
2.975e+01 	 1.25018e+00
3.000e+01 	 1.24137e+00
3.025e+01 	 1.19923e+00
3.050e+01 	 1.17124e+00
3.075e+01 	 1.17794e+00
3.100e+01 	 1.12380e+00
3.125e+01 	 1.10873e+00
3.150e+01 	 1.09471e+00
3.175e+01 	 1.05456e+00
3.200e+01 	 1.03349e+00
3.225e+01 	 1.02265e+00
3.250e+01 	 9.90505e-01
3.275e+01 	 9.32650e-01
3.300e+01 	 9.60953e-01
3.325e+01 	 9.20078e-01
3.350e+01 	 9.05051e-01
3.375e+01 	 8.84606e-01
3.400e+01 	 8.40063e-01
3.425e+01 	 8.52086e-01
3.450e+01 	 7.77013e-01
3.475e+01 	 8.26962e-01
3.500e+01 	 7.33362e-01
3.525e+01 	 7.98248e-01
3.550e+01 	 6.84432e-01
3.575e+01 	 7.42539e-01
3.600e+01 	 6.85054e-01
3.625e+01 	 6.61294e-01
3.650e+01 	 6.70838e-01
3.675e+01 	 6.00577e-01
3.700e+01 	 6.24073e-01
3.725e+01 	 5.78632e-01
3.750e+01 	 5.61379e-01
3.775e+01 	 5.39255e-01
3.800e+01 	 5.42995e-01
3.825e+01 	 4.91440e-01
3.850e+01 	 4.84319e-01
3.875e+01 	 4.46147e-01
3.900e+01 	 4.27424e-01
3.925e+01 	 4.30702e-01
3.950e+01 	 3.91395e-01
3.975e+01 	 4.06538e-01
4.000e+01 	 3.50751e-01
4.025e+01 	 3.55004e-01
4.050e+01 	 3.22177e-01
4.075e+01 	 3.12029e-01
4.100e+01 	 2.87300e-01
4.125e+01 	 2.59898e-01
4.150e+01 	 2.40955e-01
4.175e+01 	 2.25823e-01
4.200e+01 	 2.10794e-01
4.225e+01 	 1.80815e-01
4.250e+01 	 1.66556e-01
4.275e+01 	 1.25762e-01
4.300e+01 	 1.30136e-01
4.325e+01 	 8.42753e-02
4.350e+01 	 8.06107e-02
4.375e+01 	 4.34920e-02
4.400e+01 	 2.19391e-02
4.425e+01 	 1.84997e-03
4.450e+01 	 1.69171e-03
4.475e+01 	 7.28549e-05
4.500e+01 	 1.75909e-03
4.525e+01 	 2.01005e-03
4.550e+01 	 1.43877e-03
4.575e+01 	 9.49136e-04
4.600e+01 	 1.99419e-03
